Frecuencia(Hz)	Magnitud(V)
0.00	0.00097
1.86	0.00088
3.72	0.00068
5.58	0.00050
7.44	0.00041
9.30	0.00039
11.16	0.00042
13.01	0.00045
14.87	0.00050
16.73	0.00056
18.59	0.00059
20.45	0.00059
22.31	0.00057
24.17	0.00056
26.03	0.00052
27.89	0.00045
29.75	0.00035
31.61	0.00025
33.47	0.00023
35.33	0.00032
37.19	0.00046
39.04	0.00056
40.90	0.00056
42.76	0.00051
44.62	0.00049
46.48	0.00049
48.34	0.00051
50.20	0.00055
52.06	0.00058
53.92	0.00053
55.78	0.00041
57.64	0.00036
59.50	0.00043
61.36	0.00052
63.22	0.00053
65.07	0.00061
66.93	0.00084
68.79	0.00101
70.65	0.00091
72.51	0.00075
74.37	0.00084
76.23	0.00103
78.09	0.00095
79.95	0.00094
81.81	0.00156
83.67	0.00217
85.53	0.00142
87.39	0.00064
89.25	0.00231
91.10	0.00597
92.96	0.00071
94.82	0.03119
96.68	0.08595
98.54	0.13916
100.40	0.15741
102.26	0.12843
104.12	0.07246
105.98	0.02344
107.84	0.00082
109.70	0.00155
111.56	0.00220
113.42	0.00286
115.28	0.00137
117.13	0.00077
118.99	0.00112
120.85	0.00108
122.71	0.00056
124.57	0.00042
126.43	0.00071
128.29	0.00085
130.15	0.00068
132.01	0.00051
133.87	0.00044
135.73	0.00030
137.59	0.00013
139.45	0.00016
141.31	0.00041
143.16	0.00058
145.02	0.00058
146.88	0.00050
148.74	0.00044
150.60	0.00039
152.46	0.00035
154.32	0.00038
156.18	0.00044
158.04	0.00045
159.90	0.00041
161.76	0.00037
163.62	0.00032
165.48	0.00024
167.34	0.00015
169.19	0.00010
171.05	0.00016
172.91	0.00025
174.77	0.00031
176.63	0.00030
178.49	0.00021
180.35	0.00011
182.21	0.00008
184.07	0.00013
185.93	0.00025
187.79	0.00039
189.65	0.00046
191.51	0.00044
193.37	0.00034
195.22	0.00020
197.08	0.00009
198.94	0.00006
200.80	0.00003
202.66	0.00004
204.52	0.00011
206.38	0.00015
208.24	0.00018
210.10	0.00018
211.96	0.00018
213.82	0.00020
215.68	0.00020
217.54	0.00018
219.40	0.00014
221.25	0.00011
223.11	0.00009
224.97	0.00006
226.83	0.00002
228.69	0.00002
230.55	0.00001
232.41	0.00002
234.27	0.00005
236.13	0.00008
237.99	0.00009
239.85	0.00009
241.71	0.00012
243.57	0.00019
245.43	0.00027
247.28	0.00027
249.14	0.00019
251.00	0.00014
252.86	0.00024
254.72	0.00031
256.58	0.00029
258.44	0.00020
260.30	0.00010
262.16	0.00010
264.02	0.00017
265.88	0.00020
267.74	0.00017
269.60	0.00012
271.46	0.00008
273.31	0.00009
275.17	0.00013
277.03	0.00019
278.89	0.00023
280.75	0.00023
282.61	0.00018
284.47	0.00014
286.33	0.00011
288.19	0.00010
290.05	0.00009
291.91	0.00008
293.77	0.00006
295.63	0.00003
297.49	0.00003
299.34	0.00010
301.20	0.00016
303.06	0.00021
304.92	0.00022
306.78	0.00019
308.64	0.00015
310.50	0.00016
312.36	0.00021
314.22	0.00025
316.08	0.00023
317.94	0.00021
319.80	0.00022
321.66	0.00021
323.52	0.00017
325.37	0.00012
327.23	0.00011
329.09	0.00012
330.95	0.00011
332.81	0.00007
334.67	0.00003
336.53	0.00002
338.39	0.00006
340.25	0.00017
342.11	0.00027
343.97	0.00030
345.83	0.00027
347.69	0.00018
349.55	0.00009
351.40	0.00003
353.26	0.00007
355.12	0.00011
356.98	0.00014
358.84	0.00015
360.70	0.00017
362.56	0.00021
364.42	0.00027
366.28	0.00029
368.14	0.00026
370.00	0.00022
371.86	0.00019
373.72	0.00013
375.57	0.00004
377.43	0.00010
379.29	0.00023
381.15	0.00029
383.01	0.00025
384.87	0.00014
386.73	0.00002
388.59	0.00006
390.45	0.00009
392.31	0.00008
394.17	0.00007
396.03	0.00006
397.89	0.00002
399.75	0.00003
401.60	0.00005
403.46	0.00006
405.32	0.00008
407.18	0.00012
409.04	0.00016
410.90	0.00019
412.76	0.00017
414.62	0.00012
416.48	0.00010
418.34	0.00014
420.20	0.00017
422.06	0.00017
423.92	0.00016
425.78	0.00015
427.63	0.00013
429.49	0.00013
431.35	0.00019
433.21	0.00024
435.07	0.00021
436.93	0.00010
438.79	0.00002
440.65	0.00010
442.51	0.00010
444.37	0.00007
446.23	0.00008
448.09	0.00013
449.95	0.00014
451.81	0.00012
453.66	0.00007
455.52	0.00003
457.38	0.00004
459.24	0.00006
461.10	0.00008
462.96	0.00008
464.82	0.00003
466.68	0.00006
468.54	0.00014
470.40	0.00017
472.26	0.00013
474.12	0.00007
475.98	0.00004
477.84	0.00006
479.69	0.00014
481.55	0.00022
483.41	0.00026
485.27	0.00023
487.13	0.00016
488.99	0.00009
490.85	0.00004
492.71	0.00005
494.57	0.00014
496.43	0.00021
498.29	0.00025
500.15	0.00024
502.01	0.00021
503.87	0.00019
505.72	0.00017
507.58	0.00014
509.44	0.00011
511.30	0.00009
513.16	0.00010
515.02	0.00012
516.88	0.00015
518.74	0.00018
520.60	0.00018
522.46	0.00014
524.32	0.00011
526.18	0.00008
528.04	0.00004
529.90	0.00010
531.75	0.00018
533.61	0.00020
535.47	0.00014
537.33	0.00007
539.19	0.00005
541.05	0.00006
542.91	0.00005
544.77	0.00002
546.63	0.00003
548.49	0.00007
550.35	0.00007
552.21	0.00003
554.07	0.00009
555.93	0.00014
557.78	0.00012
559.64	0.00005
561.50	0.00007
563.36	0.00011
565.22	0.00010
567.08	0.00007
568.94	0.00006
570.80	0.00007
572.66	0.00007
574.52	0.00005
576.38	0.00005
578.24	0.00009
580.10	0.00012
581.96	0.00011
583.81	0.00008
585.67	0.00010
587.53	0.00015
589.39	0.00016
591.25	0.00013
593.11	0.00006
594.97	0.00002
596.83	0.00009
598.69	0.00012
600.55	0.00009
602.41	0.00001
604.27	0.00010
606.13	0.00015
607.99	0.00013
609.84	0.00005
611.70	0.00008
613.56	0.00013
615.42	0.00011
617.28	0.00012
619.14	0.00020
621.00	0.00028
622.86	0.00029
624.72	0.00026
626.58	0.00019
628.44	0.00010
630.30	0.00002
632.16	0.00008
634.02	0.00015
635.87	0.00018
637.73	0.00017
639.59	0.00014
641.45	0.00010
643.31	0.00005
645.17	0.00005
647.03	0.00008
648.89	0.00008
650.75	0.00009
652.61	0.00004
654.47	0.00007
656.33	0.00020
658.19	0.00026
660.05	0.00023
661.90	0.00016
663.76	0.00012
665.62	0.00013
667.48	0.00013
669.34	0.00012
671.20	0.00008
673.06	0.00001
674.92	0.00007
676.78	0.00006
678.64	0.00003
680.50	0.00011
682.36	0.00017
684.22	0.00017
686.08	0.00013
687.93	0.00008
689.79	0.00008
691.65	0.00011
693.51	0.00014
695.37	0.00013
697.23	0.00010
699.09	0.00009
700.95	0.00006
702.81	0.00002
704.67	0.00010
706.53	0.00014
708.39	0.00013
710.25	0.00011
712.11	0.00014
713.96	0.00017
715.82	0.00016
717.68	0.00014
719.54	0.00014
721.40	0.00012
723.26	0.00010
725.12	0.00012
726.98	0.00016
728.84	0.00018
730.70	0.00016
732.56	0.00012
734.42	0.00011
736.28	0.00011
738.14	0.00012
739.99	0.00009
741.85	0.00003
743.71	0.00006
745.57	0.00013
747.43	0.00015
749.29	0.00012
751.15	0.00008
753.01	0.00010
754.87	0.00014
756.73	0.00015
758.59	0.00013
760.45	0.00010
762.31	0.00012
764.17	0.00019
766.02	0.00021
767.88	0.00018
769.74	0.00011
771.60	0.00011
773.46	0.00018
775.32	0.00023
777.18	0.00022
779.04	0.00013
780.90	0.00001
782.76	0.00007
784.62	0.00007
786.48	0.00001
788.34	0.00008
790.19	0.00010
792.05	0.00010
793.91	0.00013
795.77	0.00015
797.63	0.00015
799.49	0.00019
801.35	0.00022
803.21	0.00022
805.07	0.00020
806.93	0.00017
808.79	0.00016
810.65	0.00016
812.51	0.00017
814.37	0.00018
816.22	0.00014
818.08	0.00008
819.94	0.00002
821.80	0.00001
823.66	0.00006
825.52	0.00010
827.38	0.00008
829.24	0.00004
831.10	0.00009
832.96	0.00013
834.82	0.00011
836.68	0.00005
838.54	0.00002
840.40	0.00002
842.25	0.00003
844.11	0.00006
845.97	0.00008
847.83	0.00009
849.69	0.00010
851.55	0.00014
853.41	0.00016
855.27	0.00015
857.13	0.00010
858.99	0.00005
860.85	0.00007
862.71	0.00010
864.57	0.00012
866.43	0.00012
868.28	0.00010
870.14	0.00005
872.00	0.00001
873.86	0.00005
875.72	0.00007
877.58	0.00007
879.44	0.00005
881.30	0.00007
883.16	0.00009
885.02	0.00009
886.88	0.00008
888.74	0.00004
890.60	0.00003
892.46	0.00007
894.31	0.00008
896.17	0.00006
898.03	0.00004
899.89	0.00005
901.75	0.00005
903.61	0.00007
905.47	0.00011
907.33	0.00010
909.19	0.00007
911.05	0.00008
912.91	0.00010
914.77	0.00007
916.63	0.00003
918.49	0.00011
920.34	0.00017
922.20	0.00019
924.06	0.00016
925.92	0.00008
927.78	0.00007
929.64	0.00017
931.50	0.00024
933.36	0.00023
935.22	0.00016
937.08	0.00006
938.94	0.00003
940.80	0.00008
942.66	0.00011
944.52	0.00010
946.37	0.00009
948.23	0.00010
950.09	0.00011
